Temperature (K)	Pressure (MPa)	"Density (l, kg/m3)"	"Volume (l, m3/kg)"	"Internal Energy (l, kJ/kg)"	"Enthalpy (l, kJ/kg)"	"Entropy (l, J/g*K)"	"Volume (v, m3/kg)"	"Internal Energy (v, kJ/kg)"	"Enthalpy (v, kJ/kg)"	"Entropy (v, J/g*K)"	"Cv (v, J/g*K)"	"Cp (v, J/g*K)"	"Sound Spd. (v, m/s)"	"Joule-Thomson (v, K/MPa)"	"Viscosity (v, uPa*s)"	"Therm. Cond. (v, W/m*K)"
273.16	0.00061165	999.79	0.0010002	6.14E-11	0.00061178	1.91E-13	205.99	2374.9	2500.9	9.1555	1.4184	1.8844	409	592.65	9.2163	0.017071
283.16	0.001229	999.65	0.0010003	42.062	42.063	0.15123	106.24	2388.7	2519.2	8.8995	1.4269	1.8947	416.17	432.59	9.4614	0.017622
293.16	0.0023408	998.16	0.0010018	83.954	83.956	0.29663	57.723	2402.3	2537.5	8.6658	1.4359	1.9059	423.19	320.54	9.7275	0.018228
303.16	0.0042494	995.6	0.0010044	125.77	125.78	0.43689	32.86	2415.9	2555.6	8.4518	1.4453	1.918	430.04	242.78	10.011	0.018887
313.16	0.0073889	992.17	0.0010079	167.57	167.57	0.57254	19.505	2429.4	2573.5	8.2554	1.4553	1.9314	436.72	188.69	10.308	0.019599
323.16	0.012358	987.99	0.0010122	209.37	209.38	0.70394	12.021	2442.7	2591.3	8.0747	1.4663	1.9468	443.22	150.58	10.617	0.020365
333.16	0.019956	983.16	0.0010171	251.2	251.22	0.83142	7.6639	2455.9	2608.9	7.908	1.479	1.9648	449.51	123.19	10.935	0.021188
343.16	0.031214	977.73	0.0010228	293.08	293.11	0.95525	5.0375	2468.9	2626.1	7.7539	1.4937	1.9862	455.58	103.02	11.261	0.022069
353.16	0.047434	971.76	0.0010291	335.01	335.05	1.0757	3.4039	2481.6	2643	7.6109	1.5111	2.012	461.39	87.799	11.593	0.023012
363.16	0.070208	965.29	0.001036	377.01	377.08	1.193	2.3582	2494	2659.5	7.478	1.5316	2.043	466.94	76.024	11.929	0.02402
373.16	0.10145	958.34	0.0010435	419.1	419.21	1.3073	1.6712	2506	2675.6	7.354	1.5559	2.0801	472.2	66.699	12.27	0.025097
383.16	0.14343	950.94	0.0010516	461.31	461.46	1.4189	1.2089	2517.7	2691.1	7.238	1.5844	2.1244	477.14	59.146	12.612	0.026246
393.16	0.19874	943.1	0.0010603	503.64	503.85	1.528	0.89095	2528.9	2705.9	7.129	1.6177	2.177	481.74	52.89	12.956	0.027468
403.16	0.27036	934.83	0.0010697	546.14	546.43	1.6348	0.66782	2539.5	2720.1	7.0263	1.6563	2.2389	485.97	47.596	13.302	0.028766
413.16	0.36164	926.13	0.0010798	588.81	589.2	1.7393	0.50832	2549.6	2733.5	6.9292	1.7003	2.311	489.82	43.029	13.647	0.030142
423.16	0.47629	917	0.0010905	631.7	632.22	1.8419	0.39235	2559.1	2745.9	6.837	1.7498	2.394	493.27	39.024	13.992	0.031597
433.16	0.61839	907.44	0.001102	674.84	675.52	1.9427	0.30671	2567.8	2757.5	6.749	1.8045	2.4884	496.3	35.47	14.337	0.033132
443.16	0.79238	897.44	0.0011143	718.24	719.13	2.0418	0.24253	2575.7	2767.9	6.6649	1.8641	2.5946	498.89	32.292	14.682	0.03475
453.16	1.003	886.99	0.0011274	761.97	763.1	2.1393	0.1938	2582.8	2777.2	6.584	1.928	2.713	501.04	29.438	15.026	0.03645
463.16	1.2555	876.06	0.0011415	806.04	807.48	2.2356	0.15633	2589	2785.3	6.5058	1.9957	2.8444	502.73	26.871	15.37	0.038238
473.16	1.5553	864.65	0.0011565	850.52	852.32	2.3306	0.12718	2594.2	2792	6.4301	2.0666	2.9897	503.92	24.562	15.715	0.040115
483.16	1.9081	852.71	0.0011727	895.44	897.68	2.4246	0.10427	2598.3	2797.3	6.3562	2.1406	3.1505	504.62	22.485	16.062	0.04209
493.16	2.32	840.21	0.0011902	940.86	943.62	2.5178	0.086076	2601.3	2800.9	6.2839	2.2173	3.3291	504.77	20.618	16.411	0.044172
503.16	2.7976	827.11	0.001209	986.85	990.24	2.6102	0.07149	2602.9	2802.9	6.2127	2.2969	3.5287	504.35	18.938	16.765	0.046378
513.16	3.3475	813.35	0.0012295	1033.5	1037.6	2.7021	0.059694	2603.1	2803	6.1422	2.3795	3.7539	503.32	17.425	17.125	0.04873
523.16	3.9768	798.88	0.0012518	1080.8	1085.8	2.7936	0.050074	2601.8	2800.9	6.072	2.4656	4.0108	501.62	16.057	17.495	0.051266
533.16	4.693	783.61	0.0012761	1129	1135	2.885	0.042166	2598.7	2796.6	6.0015	2.5556	4.3079	499.2	14.818	17.877	0.054035
543.16	5.5038	767.44	0.001303	1178.1	1185.3	2.9766	0.035615	2593.7	2789.7	5.9303	2.6503	4.6566	496	13.689	18.277	0.057115
553.16	6.4176	750.26	0.0013329	1228.4	1236.9	3.0686	0.030148	2586.4	2779.9	5.8578	2.7504	5.0736	491.92	12.656	18.7	0.060618
563.16	7.4429	731.89	0.0013663	1279.9	1290.1	3.1613	0.025551	2576.5	2766.7	5.7833	2.8569	5.5826	486.87	11.704	19.155	0.064713
573.16	8.5891	712.12	0.0014043	1333	1345.1	3.2553	0.021657	2563.6	2749.6	5.7058	2.9709	6.2204	480.72	10.82	19.652	0.069655
583.16	9.8664	690.65	0.0014479	1388	1402.3	3.3511	0.018332	2547.1	2727.9	5.6243	3.0938	7.0459	473.31	9.9917	20.208	0.075843
593.16	11.286	667.07	0.0014991	1445.4	1462.3	3.4495	0.015468	2526	2700.6	5.5371	3.2277	8.1603	464.42	9.2051	20.847	0.083916
603.16	12.86	640.75	0.0015607	1505.9	1525.9	3.5519	0.012976	2499.1	2666	5.4421	3.3757	9.7546	453.72	8.4457	21.607	0.094954
613.16	14.603	610.64	0.0016376	1570.7	1594.6	3.6602	0.010779	2464.4	2621.8	5.3355	3.5432	12.239	440.7	7.6954	22.555	0.11093
623.16	16.531	574.67	0.0017401	1642.2	1671	3.7785	0.0088005	2418.1	2563.6	5.2109	3.742	16.698	424.37	6.9274	23.822	0.13598
633.16	18.668	527.54	0.0018956	1726.4	1761.8	3.9168	0.0069475	2351.7	2481.4	5.0534	4.0071	27.374	402.34	6.088	25.727	0.18158
643.16	21.046	451.31	0.0022158	1844.2	1890.9	4.1114	0.004952	2230.1	2334.3	4.8008	4.5675	96.859	362.76	4.9491	29.685	0.32419
